# total density of states output by FHI-aims 
# The energy reference for this output is the chemical potential, mu =       -5.181399 eV
#    Energy (eV)      DOS 
        -14.81860106          1.49603017
        -14.81660106          1.49463347
        -14.81460106          1.49085095
        -14.81260106          1.48470071
        -14.81060106          1.47621210
        -14.80860106          1.46542555
        -14.80660106          1.45239219
        -14.80460106          1.43717349
        -14.80260106          1.41984074
        -14.80060106          1.40047451
        -14.79860106          1.37916403
        -14.79660106          1.35600650
        -14.79460106          1.33110636
        -14.79260106          1.30457448
        -14.79060106          1.27652737
        -14.78860106          1.24708633
        -14.78660106          1.21637654
        -14.78460106          1.18452624
        -14.78260106          1.15166579
        -14.78060106          1.11792683
        -14.77860106          1.08344138
        -14.77660106          1.04834105
        -14.77460106          1.01275616
        -14.77260106          0.97681501
        -14.77060106          0.94064313
        -14.76860106          0.90436257
        -14.76660106          0.86809129
        -14.76460106          0.83194257
        -14.76260106          0.79602448
        -14.76060106          0.76043944
        -14.75860106          0.72528379
        -14.75660106          0.69064749
        -14.75460106          0.65661384
        -14.75260106          0.62325928
        -14.75060106          0.59065326
        -14.74860106          0.55885815
        -14.74660106          0.52792922
        -14.74460106          0.49791469
        -14.74260106          0.46885582
        -14.74060106          0.44078703
        -14.73860106          0.41373612
        -14.73660106          0.38772445
        -14.73460106          0.36276725
        -14.73260106          0.33887387
        -14.73060106          0.31604813
        -14.72860106          0.29428864
        -14.72660106          0.27358917
        -14.72460106          0.25393902
        -14.72260106          0.23532339
        -14.72060106          0.21772379
        -14.71860106          0.20111839
        -14.71660106          0.18548246
        -14.71460106          0.17078865
        -14.71260106          0.15700747
        -14.71060106          0.14410756
        -14.70860106          0.13205605
        -14.70660106          0.12081894
        -14.70460106          0.11036131
        -14.70260106          0.10064769
        -14.70060106          0.09164228
        -14.69860106          0.08330923
        -14.69660106          0.07561283
        -14.69460106          0.06851773
        -14.69260106          0.06198914
        -14.69060106          0.05599296
        -14.68860106          0.05049593
        -14.68660106          0.04546577
        -14.68460106          0.04087125
        -14.68260106          0.03668229
        -14.68060106          0.03287004
        -14.67860106          0.02940691
        -14.67660106          0.02626660
        -14.67460106          0.02342415
        -14.67260106          0.02085593
        -14.67060106          0.01853963
        -14.66860106          0.01645427
        -14.66660106          0.01458017
        -14.66460106          0.01289894
        -14.66260106          0.01139339
        -14.66060106          0.01004757
        -14.65860106          0.00884666
        -14.65660106          0.00777698
        -14.65460106          0.00682587
        -14.65260106          0.00598170
        -14.65060106          0.00523381
        -14.64860106          0.00457241
        -14.64660106          0.00398859
        -14.64460106          0.00347421
        -14.64260106          0.00302189
        -14.64060106          0.00262494
        -14.63860106          0.00227732
        -14.63660106          0.00197359
        -14.63460106          0.00170885
        -14.63260106          0.00147874
        -14.63060106          0.00127935
        -14.62860106          0.00110721
        -14.62660106          0.00095927
        -14.62460106          0.00083283
        -14.62260106          0.00072554
        -14.62060106          0.00063537
        -14.61860106          0.00056058
        -14.61660106          0.00049970
        -14.61460106          0.00045152
        -14.61260106          0.00041508
        -14.61060106          0.00038962
        -14.60860106          0.00037463
        -14.60660106          0.00036979
        -14.60460106          0.00037500
        -14.60260106          0.00039037
        -14.60060106          0.00041619
        -14.59860106          0.00045301
        -14.59660106          0.00050155
        -14.59460106          0.00056279
        -14.59260106          0.00063794
        -14.59060106          0.00072845
        -14.58860106          0.00083607
        -14.58660106          0.00096281
        -14.58460106          0.00111102
        -14.58260106          0.00128338
        -14.58060106          0.00148293
        -14.57860106          0.00171313
        -14.57660106          0.00197785
        -14.57460106          0.00228145
        -14.57260106          0.00262878
        -14.57060106          0.00302525
        -14.56860106          0.00347687
        -14.56660106          0.00399027
        -14.56460106          0.00457280
        -14.56260106          0.00523251
        -14.56060106          0.00597826
        -14.55860106          0.00681975
        -14.55660106          0.00776756
        -14.55460106          0.00883324
        -14.55260106          0.01002931
        -14.55060106          0.01136934
        -14.54860106          0.01286802
        -14.54660106          0.01454116
        -14.54460106          0.01640577
        -14.54260106          0.01848007
        -14.54060106          0.02078356
        -14.53860106          0.02333702
        -14.53660106          0.02616251
        -14.53460106          0.02928344
        -14.53260106          0.03272453
        -14.53060106          0.03651179
        -14.52860106          0.04067254
        -14.52660106          0.04523533
        -14.52460106          0.05022994
        -14.52260106          0.05568726
        -14.52060106          0.06163926
        -14.51860106          0.06811885
        -14.51660106          0.07515978
        -14.51460106          0.08279651
        -14.51260106          0.09106403
        -14.51060106          0.09999771
        -14.50860106          0.10963306
        -14.50660106          0.12000555
        -14.50460106          0.13115036
        -14.50260106          0.14310208
        -14.50060106          0.15589449
        -14.49860106          0.16956019
        -14.49660106          0.18413035
        -14.49460106          0.19963432
        -14.49260106          0.21609930
        -14.49060106          0.23354999
        -14.48860106          0.25200822
        -14.48660106          0.27149255
        -14.48460106          0.29201790
        -14.48260106          0.31359519
        -14.48060106          0.33623094
        -14.47860106          0.35992691
        -14.47660106          0.38467976
        -14.47460106          0.41048068
        -14.47260106          0.43731512
        -14.47060106          0.46516244
        -14.46860106          0.49399570
        -14.46660106          0.52378143
        -14.46460106          0.55447942
        -14.46260106          0.58604257
        -14.46060106          0.61841684
        -14.45860106          0.65154119
        -14.45660106          0.68534758
        -14.45460106          0.71976102
        -14.45260106          0.75469978
        -14.45060106          0.79007550
        -14.44860106          0.82579348
        -14.44660106          0.86175300
        -14.44460106          0.89784773
        -14.44260106          0.93396612
        -14.44060106          0.96999196
        -14.43860106          1.00580492
        -14.43660106          1.04128120
        -14.43460106          1.07629418
        -14.43260106          1.11071516
        -14.43060106          1.14441412
        -14.42860106          1.17726053
        -14.42660106          1.20912420
        -14.42460106          1.23987608
        -14.42260106          1.26938919
        -14.42060106          1.29753948
        -14.41860106          1.32420671
        -14.41660106          1.34927530
        -14.41460106          1.37263521
        -14.41260106          1.39418274
        -14.41060106          1.41382136
        -14.40860106          1.43146241
        -14.40660106          1.44702585
        -14.40460106          1.46044086
        -14.40260106          1.47164644
        -14.40060106          1.48059195
        -14.39860106          1.48723747
        -14.39660106          1.49155425
        -14.39460106          1.49352490
        -14.39260106          1.49314362
        -14.39060106          1.49041633
        -14.38860106          1.48536060
        -14.38660106          1.47800566
        -14.38460106          1.46839219
        -14.38260106          1.45657211
        -14.38060106          1.44260821
        -14.37860106          1.42657379
        -14.37660106          1.40855216
        -14.37460106          1.38863612
        -14.37260106          1.36692733
        -14.37060106          1.34353567
        -14.36860106          1.31857855
        -14.36660106          1.29218012
        -14.36460106          1.26447057
        -14.36260106          1.23558525
        -14.36060106          1.20566394
        -14.35860106          1.17484994
        -14.35660106          1.14328933
        -14.35460106          1.11113010
        -14.35260106          1.07852138
        -14.35060106          1.04561262
        -14.34860106          1.01255289
        -14.34660106          0.97949012
        -14.34460106          0.94657039
        -14.34260106          0.91393734
        -14.34060106          0.88173153
        -14.33860106          0.85008985
        -14.33660106          0.81914507
        -14.33460106          0.78902531
        -14.33260106          0.75985367
        -14.33060106          0.73174782
        -14.32860106          0.70481968
        -14.32660106          0.67917514
        -14.32460106          0.65491384
        -14.32260106          0.63212890
        -14.32060106          0.61090683
        -14.31860106          0.59132733
        -14.31660106          0.57346322
        -14.31460106          0.55738033
        -14.31260106          0.54313745
        -14.31060106          0.53078629
        -14.30860106          0.52037143
        -14.30660106          0.51193030
        -14.30460106          0.50549319
        -14.30260106          0.50108320
        -14.30060106          0.49871628
        -14.29860106          0.49840119
        -14.29660106          0.50013950
        -14.29460106          0.50392561
        -14.29260106          0.50974670
        -14.29060106          0.51758278
        -14.28860106          0.52740663
        -14.28660106          0.53918384
        -14.28460106          0.55287279
        -14.28260106          0.56842465
        -14.28060106          0.58578345
        -14.27860106          0.60488605
        -14.27660106          0.62566225
        -14.27460106          0.64803479
        -14.27260106          0.67191952
        -14.27060106          0.69722549
        -14.26860106          0.72385508
        -14.26660106          0.75170426
        -14.26460106          0.78066273
        -14.26260106          0.81061427
        -14.26060106          0.84143701
        -14.25860106          0.87300382
        -14.25660106          0.90518268
        -14.25460106          0.93783719
        -14.25260106          0.97082703
        -14.25060106          1.00400853
        -14.24860106          1.03723531
        -14.24660106          1.07035883
        -14.24460106          1.10322919
        -14.24260106          1.13569577
        -14.24060106          1.16760803
        -14.23860106          1.19881628
        -14.23660106          1.22917249
        -14.23460106          1.25853113
        -14.23260106          1.28674998
        -14.23060106          1.31369099
        -14.22860106          1.33922108
        -14.22660106          1.36321301
        -14.22460106          1.38554609
        -14.22260106          1.40610705
        -14.22060106          1.42479067
        -14.21860106          1.44150053
        -14.21660106          1.45614960
        -14.21460106          1.46866084
        -14.21260106          1.47896768
        -14.21060106          1.48701445
        -14.20860106          1.49275676
        -14.20660106          1.49616174
        -14.20460106          1.49720827
        -14.20260106          1.49588702
        -14.20060106          1.49220052
        -14.19860106          1.48616306
        -14.19660106          1.47780052
        -14.19460106          1.46715011
        -14.19260106          1.45426005
        -14.19060106          1.43918914
        -14.18860106          1.42200626
        -14.18660106          1.40278980
        -14.18460106          1.38162702
        -14.18260106          1.35861339
        -14.18060106          1.33385177
        -14.17860106          1.30745169
        -14.17660106          1.27952848
        -14.17460106          1.25020241
        -14.17260106          1.21959784
        -14.17060106          1.18784229
        -14.16860106          1.15506561
        -14.16660106          1.12139900
        -14.16460106          1.08697423
        -14.16260106          1.05192273
        -14.16060106          1.01637480
        -14.15860106          0.98045880
        -14.15660106          0.94430042
        -14.15460106          0.90802196
        -14.15260106          0.87174172
        -14.15060106          0.83557337
        -14.14860106          0.79962546
        -14.14660106          0.76400092
        -14.14460106          0.72879666
        -14.14260106          0.69410326
        -14.14060106          0.66000464
        -14.13860106          0.62657793
        -14.13660106          0.59389323
        -14.13460106          0.56201361
        -14.13260106          0.53099504
        -14.13060106          0.50088642
        -14.12860106          0.47172968
        -14.12660106          0.44355993
        -14.12460106          0.41640560
        -14.12260106          0.39028869
        -14.12060106          0.36522502
        -14.11860106          0.34122450
        -14.11660106          0.31829150
        -14.11460106          0.29642513
        -14.11260106          0.27561962
        -14.11060106          0.25586470
        -14.10860106          0.23714598
        -14.10660106          0.21944530
        -14.10460106          0.20274116
        -14.10260106          0.18700909
        -14.10060106          0.17222201
        -14.09860106          0.15835059
        -14.09660106          0.14536367
        -14.09460106          0.13322852
        -14.09260106          0.12191121
        -14.09060106          0.11137692
        -14.08860106          0.10159023
        -14.08660106          0.09251534
        -14.08460106          0.08411641
        -14.08260106          0.07635770
        -14.08060106          0.06920382
        -14.07860106          0.06261991
        -14.07660106          0.05657179
        -14.07460106          0.05102612
        -14.07260106          0.04595051
        -14.07060106          0.04131361
        -14.06860106          0.03708525
        -14.06660106          0.03323643
        -14.06460106          0.02973943
        -14.06260106          0.02656783
        -14.06060106          0.02369652
        -14.05860106          0.02110174
        -14.05660106          0.01876105
        -14.05460106          0.01665333
        -14.05260106          0.01475877
        -14.05060106          0.01305883
        -14.04860106          0.01153623
        -14.04660106          0.01017486
        -14.04460106          0.00895980
        -14.04260106          0.00787723
        -14.04060106          0.00691439
        -14.03860106          0.00605954
        -14.03660106          0.00530189
        -14.03460106          0.00463156
        -14.03260106          0.00403952
        -14.03060106          0.00351753
        -14.02860106          0.00305811
        -14.02660106          0.00265446
        -14.02460106          0.00230041
        -14.02260106          0.00199042
        -14.02060106          0.00171947
        -14.01860106          0.00148306
        -14.01660106          0.00127714
        -14.01460106          0.00109810
        -14.01260106          0.00094270
        -14.01060106          0.00080807
        -14.00860106          0.00069163
        -14.00660106          0.00059113
        -14.00460106          0.00050454
        -14.00260106          0.00043010
        -14.00060106          0.00036623
        -13.99860106          0.00031157
        -13.99660106          0.00026491
        -13.99460106          0.00022520
        -13.99260106          0.00019154
        -13.99060106          0.00016311
        -13.98860106          0.00013926
        -13.98660106          0.00011938
        -13.98460106          0.00010299
        -13.98260106          0.00008967
        -13.98060106          0.00007907
        -13.97860106          0.00007091
        -13.97660106          0.00006497
        -13.97460106          0.00006109
        -13.97260106          0.00005916
        -13.97060106          0.00005909
        -13.96860106          0.00006089
        -13.96660106          0.00006458
        -13.96460106          0.00007024
        -13.96260106          0.00007800
        -13.96060106          0.00008803
        -13.95860106          0.00010056
        -13.95660106          0.00011588
        -13.95460106          0.00013434
        -13.95260106          0.00015636
        -13.95060106          0.00018242
        -13.94860106          0.00021310
        -13.94660106          0.00024907
        -13.94460106          0.00029109
        -13.94260106          0.00034004
        -13.94060106          0.00039691
        -13.93860106          0.00046287
        -13.93660106          0.00053920
        -13.93460106          0.00062739
        -13.93260106          0.00072910
        -13.93060106          0.00084622
        -13.92860106          0.00098088
        -13.92660106          0.00113546
        -13.92460106          0.00131265
        -13.92260106          0.00151545
        -13.92060106          0.00174723
        -13.91860106          0.00201175
        -13.91660106          0.00231320
        -13.91460106          0.00265624
        -13.91260106          0.00304605
        -13.91060106          0.00348838
        -13.90860106          0.00398959
        -13.90660106          0.00455671
        -13.90460106          0.00519751
        -13.90260106          0.00592053
        -13.90060106          0.00673517
        -13.89860106          0.00765175
        -13.89660106          0.00868156
        -13.89460106          0.00983697
        -13.89260106          0.01113147
        -13.89060106          0.01257976
        -13.88860106          0.01419783
        -13.88660106          0.01600304
        -13.88460106          0.01801420
        -13.88260106          0.02025165
        -13.88060106          0.02273734
        -13.87860106          0.02549492
        -13.87660106          0.02854982
        -13.87460106          0.03192932
        -13.87260106          0.03566261
        -13.87060106          0.03978090
        -13.86860106          0.04431746
        -13.86660106          0.04930767
        -13.86460106          0.05478909
        -13.86260106          0.06080151
        -13.86060106          0.06738693
        -13.85860106          0.07458966
        -13.85660106          0.08245626
        -13.85460106          0.09103557
